Data from Argon1000V595mT_1000ms_USB2G486391__0__00110.txt Node

Date: Thu Oct 21 17:14:12 EDT 2021
User: phys191
Spectrometer: USB2G48639
Scans to average: 1
Trigger mode: 4
Integration Time (sec): 1.000000E0
Electric dark correction enabled: true
Boxcar width: 0
XAxis mode: Wavelengths
Number of Pixels in Spectrum: 651
>>>>>Begin Spectral Data<<<<<
350	10.46
351	-1.92
352	-5.72
353	3.47
354	-6.29
355	3.4
356	3.46
357	37.3
358	-3.19
359	-3.5
360	-4.42
361	-5.45
362	1.2
363	1.11
364	-9.41
365	-0.12
366	-1.03
367	-3
368	25.41
369	34.83
370	3.84
371	37.73
372	2.84
373	13.87
374	-0.15
375	4.16
376	1.94
377	4.44
378	-1.72
379	-8.44
380	-1.57
381	11.89
382	-0.69
383	-3.7
384	0.33
385	0.04
386	9.19
387	-1.47
388	-10.63
389	-3.35
390	-7.63
391	-4.5
392	-6.25
393	-1.5
394	-3.1
395	-1.06
396	-6.4
397	-0.42
398	17.56
399	2.49
400	-2.82
401	21.35
402	0.15
403	12.44
404	238.94
405	17.34
406	5.92
407	4.12
408	-1.43
409	3.47
410	-9.69
411	11.41
412	-1.38
413	22.19
414	-2.91
415	-4.31
416	9.05
417	13.15
418	-1.56
419	0.83
420	12.76
421	40.84
422	5.2
423	2.1
424	-2.24
425	3
426	3.85
427	56.56
428	34.69
429	15.72
430	-5.75
431	5.9
432	-9.97
433	3.6
434	16.05
435	25.44
436	20.04
437	-3.79
438	10.84
439	10.89
440	0.51
441	18.43
442	2.34
443	8.18
444	12.03
445	-7.97
446	-3.78
447	-3.99
448	-4.27
449	4.9
450	-1.71
451	6.83
452	16.68
453	6.46
454	17.56
455	27.91
456	16.47
457	25.32
458	6.73
459	10.87
460	19.11
461	13.61
462	28.09
463	1.39
464	-1.88
465	48.12
466	27.48
467	8.43
468	12.08
469	-8.32
470	-5.25
471	-1.05
472	1.16
473	-4.58
474	15.69
475	0.43
476	-0.86
477	17.15
478	18.46
479	0.36
480	-0.81
481	10.58
482	10.38
483	-3.91
484	1.31
485	1.36
486	7.65
487	37.41
488	21.62
489	34.4
490	13.01
491	7.36
492	17.49
493	326.78
494	49.86
495	23.44
496	22.39
497	66.71
498	3.65
499	2.74
500	-11.74
501	1.98
502	5.67
503	-0.34
504	-4.72
505	2.86
506	-3.86
507	0.99
508	7.21
509	-10.03
510	0.95
511	-3.66
512	-7.06
513	-9.73
514	-3.76
515	-3.62
516	4.88
517	7.19
518	-2.93
519	8.01
520	20.95
521	-6.81
522	-9.15
523	3.33
524	-2.65
525	2.85
526	2.7
527	5.38
528	-3.09
529	-7.99
530	-8.28
531	-2.14
532	3.9
533	-5.83
534	-12.44
535	-1.64
536	5.07
537	-3.11
538	1.03
539	3.88
540	-10.69
541	-2.14
542	5.54
543	2.4
544	8.26
545	-0.23
546	2.71
547	-2.63
548	2.48
549	-11.18
550	3.94
551	11.53
552	2.82
553	1.65
554	-1.37
555	1.87
556	3.46
557	10.31
558	10.37
559	-3.96
560	8.69
561	11.72
562	10.67
563	9.02
564	10.84
565	2.45
566	0.8
567	16.69
568	-3.13
569	-6.73
570	-9.72
571	-2.05
572	-8.06
573	-0.76
574	11.28
575	66.88
576	23.73
577	-4.26
578	-2.84
579	0.17
580	-0.85
581	5.79
582	37.77
583	8.53
584	0.76
585	-2.5
586	-2.62
587	4.58
588	66.53
589	15
590	15.74
591	7.63
592	42.53
593	27.35
594	9.82
595	12.14
596	6.69
597	7.92
598	9.88
599	7.94
600	5.6
601	6.5
602	21.69
603	7.32
604	26.73
605	32.13
606	16.66
607	19.78
608	16.26
609	-1.27
610	2.16
611	8
612	14.96
613	8.46
614	22.01
615	-6.31
616	2.23
617	11.03
618	22.07
619	5.36
620	-4.23
621	-5.68
622	7.47
623	5.37
624	-6.88
625	-8.34
626	4.4
627	-3.24
628	-0.95
629	-4.12
630	35.28
631	-2.7
632	7.3
633	9.16
634	-2.64
635	-5.13
636	-7.62
637	-2.11
638	7.33
639	43.89
640	2.61
641	4.32
642	68.81
643	6.52
644	19.86
645	6.3
646	13.07
647	25.49
648	7.82
649	2.96
650	9.2
651	12.13
652	29.24
653	50.78
654	16.31
655	12.11
656	24.17
657	120.61
658	71.66
659	27.47
660	18.16
661	37.87
662	14.35
663	39.08
664	6.52
665	2.81
666	12.53
667	16.66
668	21.72
669	25.62
670	28.43
671	58.75
672	9.88
673	6.4
674	9.52
675	9.79
676	49.44
677	42.41
678	26.99
679	12.75
680	11.26
681	10.55
682	-0.12
683	5.21
684	80.19
685	8.05
686	9.22
687	8.73
688	37.63
689	57.19
690	24.35
691	4.53
692	-2.28
693	0.57
694	6.43
695	22.8
696	39.73
697	186.89
698	209.79
699	69.47
700	23.29
701	-1.59
702	8.06
703	-0.23
704	9.9
705	11.33
706	5.41
707	112.57
708	165.55
709	59.14
710	4.35
711	-1.56
712	-5.8
713	-1.11
714	1.83
715	18.67
716	17.43
717	11.66
718	-3.1
719	-5.21
720	-9.91
721	21.34
722	4.58
723	5.23
724	1.25
725	47.84
726	7.53
727	13.84
728	47.2
729	43.22
730	13.64
731	1.1
732	4.89
733	6.75
734	14.86
735	6.78
736	17.89
737	27.98
738	50.69
739	265.05
740	205.81
741	81.78
742	27.73
743	73.78
744	21.79
745	25.82
746	22.97
747	25.08
748	27.94
749	36.87
750	63.36
751	1146.85
752	1416.61
753	733.2
754	196.17
755	34.76
756	17.54
757	12.24
758	21.01
759	17.68
760	36.84
761	28.7
762	21.91
763	98.32
764	791.13
765	696.78
766	287.92
767	37.48
768	8.52
769	9.78
770	22.81
771	26.84
772	33.55
773	327.13
774	253.58
775	102.43
776	27.79
777	15.91
778	33.96
779	-5.16
780	4.07
781	-2.4
782	-2.23
783	-5.78
784	-7.59
785	4.01
786	-7.72
787	-1.7
788	33.58
789	-1.76
790	7.79
791	-1.77
792	18.49
793	29.78
794	-3.34
795	155.31
796	214.1
797	170.5
798	25.86
799	16.4
800	5.23
801	85.51
802	319.72
803	201.44
804	89.58
805	18.45
806	4.98
807	5.03
808	5.69
809	1.54
810	25.63
811	301.85
812	782.15
813	561.79
814	246.93
815	27.46
816	17.58
817	11.91
818	-14.18
819	9.79
820	-7.05
821	4.91
822	3.12
823	0.47
824	7.92
825	1.39
826	12.33
827	129.32
828	98.01
829	44.85
830	-2.6
831	-9.52
832	-0.85
833	-2.05
834	1.19
835	1.66
836	2.09
837	-0.46
838	-2
839	28.32
840	0.61
841	159.05
842	205.04
843	381.77
844	244.45
845	117.26
846	46.73
847	-1.65
848	11.75
849	3.2
850	-6.63
851	-2.3
852	27.2
853	94.83
854	70.29
855	13.59
856	-1.64
857	-5.48
858	-6.71
859	-8.24
860	-9.33
861	1.23
862	4.95
863	-5.71
864	-7.45
865	-3.38
866	7.07
867	23.17
868	33.27
869	7.33
870	4.57
871	9.2
872	0.36
873	-1.17
874	-0.62
875	-3.77
876	-1.63
877	0.94
878	4.79
879	-3.4
880	3.11
881	-5.07
882	-6.52
883	4.16
884	3.72
885	0.56
886	7.29
887	-1.01
888	0.64
889	9.28
890	53.52
891	1.97
892	8.68
893	-6.11
894	-3.93
895	-5.52
896	-5.7
897	-7.17
898	-7.29
899	-8.74
900	25.85
901	-11.41
902	2.15
903	-0.89
904	-6.52
905	5.01
906	1.56
907	-0
908	2.5
909	2.28
910	-4.91
911	-6.53
912	41.63
913	161.69
914	57.04
915	37.36
916	18.4
917	-1.17
918	-6.46
919	0.86
920	-5.13
921	-12.13
922	0.24
923	25.7
924	-3.31
925	4.31
926	0.46
927	-1.33
928	-9.9
929	-7.08
930	0.29
931	35.59
932	-0.41
933	-8.01
934	-10.12
935	-5.47
936	14.45
937	-6.98
938	-16.32
939	3.64
940	-7.87
941	-8.11
942	-4
943	-4.31
944	-3.5
945	-5.59
946	1.37
947	-3.67
948	-1.2
949	5.48
950	-8.22
951	3.05
952	6.36
953	-11.47
954	-10.53
955	-9.72
956	-1.69
957	-9.74
958	46.53
959	-4.97
960	-9.47
961	-5.27
962	3.93
963	-0.91
964	-1.85
965	-5.46
966	4.75
967	6.7
968	3.21
969	-2.47
970	-5.74
971	-3.94
972	-2.48
973	12.72
974	-12.07
975	2.98
976	15.97
977	0.45
978	-7.62
979	-5.99
980	-1.19
981	-2.18
982	-3.27
983	-7.28
984	-1.3
985	1.1
986	-11.36
987	-13.02
988	-1.36
989	-10.46
990	-7.63
991	-6.11
992	-1.24
993	-1
994	-10.44
995	2.3
996	-1.33
997	-4.4
998	-0.89
999	0.84
1000	0.06
