probe voltage (V), probe current (A), resistance (9.9e37 if not enabled) , timestamp , status word ,
-3.000000E+01,-6.625168E-08,+9.910000E+37,+1.158393E+03,+2.150800E+04,
-2.980000E+01,-3.240762E-08,+9.910000E+37,+1.159449E+03,+2.150800E+04,
-2.960000E+01,-3.109761E-09,+9.910000E+37,+1.160511E+03,+2.150800E+04,
-2.940000E+01,+2.315503E-08,+9.910000E+37,+1.161569E+03,+2.150800E+04,
-2.920000E+01,+3.174145E-08,+9.910000E+37,+1.162630E+03,+2.150800E+04,
-2.900000E+01,+4.588382E-08,+9.910000E+37,+1.163688E+03,+2.150800E+04,
-2.880000E+01,+6.053125E-08,+9.910000E+37,+1.164749E+03,+2.150800E+04,
-2.860000E+01,+7.770414E-08,+9.910000E+37,+1.165807E+03,+2.150800E+04,
-2.840000E+01,+9.639229E-08,+9.910000E+37,+1.166864E+03,+2.150800E+04,
-2.820000E+01,+1.110398E-07,+9.910000E+37,+1.167921E+03,+2.150800E+04,
-2.800000E+01,+1.292227E-07,+9.910000E+37,+1.168979E+03,+2.150800E+04,
-2.780000E+01,+1.443752E-07,+9.910000E+37,+1.170057E+03,+2.150800E+04,
-2.760000E+01,+1.630633E-07,+9.910000E+37,+1.171112E+03,+2.150800E+04,
-2.740000E+01,+1.802362E-07,+9.910000E+37,+1.172173E+03,+2.150800E+04,
-2.720000E+01,+1.994296E-07,+9.910000E+37,+1.173232E+03,+2.150800E+04,
-2.700000E+01,+2.176126E-07,+9.910000E+37,+1.174292E+03,+2.150800E+04,
-2.680000E+01,+2.383208E-07,+9.910000E+37,+1.175368E+03,+2.150800E+04,
-2.660000E+01,+2.549887E-07,+9.910000E+37,+1.176446E+03,+2.150800E+04,
-2.640000E+01,+2.736766E-07,+9.910000E+37,+1.177503E+03,+2.150800E+04,
-2.620000E+01,+2.953954E-07,+9.910000E+37,+1.178564E+03,+2.150800E+04,
-2.600000E+01,+3.166091E-07,+9.910000E+37,+1.179644E+03,+2.150800E+04,
-2.580000E+01,+3.373171E-07,+9.910000E+37,+1.180700E+03,+2.150800E+04,
-2.560000E+01,+3.534797E-07,+9.910000E+37,+1.181761E+03,+2.150800E+04,
-2.540000E+01,+3.762084E-07,+9.910000E+37,+1.182819E+03,+2.150800E+04,
-2.520000E+01,+3.999477E-07,+9.910000E+37,+1.183879E+03,+2.150800E+04,
-2.500000E+01,+4.145950E-07,+9.910000E+37,+1.184966E+03,+2.150800E+04

current through plasma (-mA) <tab> voltage across plasma (-V) <tab> time (sec)
1.661102	713.959588	0.002000
1.669062	713.403530	0.102000
1.666323	713.547052	0.202000
1.657453	714.196291	0.302000
1.667014	713.623522	0.402000
1.670660	713.222365	0.502000
1.659583	714.015863	0.602000
1.663439	713.920185	0.702000
1.672876	713.470642	0.802000
1.663028	714.025610	0.902000
1.661202	714.205057	1.002000
1.672844	713.442224	1.102000
1.667414	713.650917	1.202000
1.660092	714.396266	1.302000
1.668681	713.698147	1.402000
1.670696	713.624158	1.502000
1.660559	714.318338	1.602000
1.666201	713.814594	1.702000
1.673427	713.532502	1.802000
1.662095	714.223680	1.902000
1.662963	714.248787	2.002000
1.672242	713.354638	2.102000
1.666154	713.970809	2.202000
1.660480	714.349194	2.302000
1.670049	713.541514	2.402000
1.669402	713.755759	2.502000
1.659123	714.359379	2.602000
1.667814	713.909242	2.702000
1.671811	713.441721	2.802000
1.661824	714.216476	2.902000
1.664087	714.026553	3.002000
1.671708	713.304396	3.102000
1.663845	714.116289	3.202000
1.660508	714.123839	3.302000
1.672401	713.331375	3.402000
1.668049	713.620312	3.502000
1.659434	714.153613	3.602000
1.669310	713.545675	3.702000
1.669322	713.358857	3.802000
1.659212	714.079198	3.902000
1.666321	713.719228	4.002000
1.672790	713.210080	4.102000
1.661608	713.932723	4.202000
1.662754	713.936766	4.302000
1.671402	713.232872	4.402000
1.663462	713.754659	4.502000
1.660091	714.073934	4.602000
1.671384	713.213965	4.702000
1.667649	713.410884	4.802000
1.658174	714.129093	4.902000
1.667849	713.733246	5.003000
1.670724	713.398340	5.102000
1.660203	714.074573	5.202000
1.665419	713.909844	5.302000
1.672572	713.257868	5.403000
1.662794	714.007946	5.502000
1.661586	714.107714	5.602000
1.671610	713.309113	5.702000
1.666538	713.811096	5.802000
1.659625	714.170835	5.902000
1.670187	713.457005	6.002000
1.669756	713.500454	6.102000
1.659148	714.222054	6.203000
1.666979	713.778397	6.302000
1.672353	713.220512	6.402000
1.662348	713.915958	6.502000
1.663458	714.014697	6.602000
1.672178	713.225798	6.703000
1.665074	713.787179	6.802000
1.660490	714.110003	6.902000
1.671385	713.226205	7.002000
1.669305	713.388300	7.103000
1.659871	714.107530	7.202000
1.667203	713.485881	7.303000
1.670953	713.223426	7.402000
1.660892	714.038743	7.502000
1.663971	713.673336	7.602000
1.672719	712.998641	7.702000
1.663483	713.697059	7.803000
1.660741	714.049275	7.902000
1.670825	713.195755	8.002000
1.666233	713.484854	8.102000
1.659258	713.947640	8.202000
1.669656	713.359386	8.302000
1.670531	713.253286	8.402000
1.659164	714.036551	8.502000
1.664470	713.609539	8.604000
1.671358	713.178293	8.704000
1.661725	713.894905	8.802000
1.661990	713.772639	8.902000
1.672127	713.018313	9.002000
1.664575	713.632391	9.103000
1.660028	714.115856	9.202000
1.669906	713.226461	9.302000
1.668192	713.311873	9.402000
1.659576	713.970641	9.502000
1.668125	713.437107	9.602000
1.671100	713.121310	9.702000
1.659991	713.941373	9.802000
1.663935	713.666893	9.902000
1.672573	713.018344	10.005000
1.663976	713.704897	10.102000
1.661192	713.861240	10.202000
1.672004	713.067884	10.302000
1.666873	713.431329	10.402000
1.659655	713.999948	10.502000
1.669783	713.260008	10.602000
1.670568	713.167831	10.702000
1.660229	713.867422	10.802000
1.665877	713.494309	10.902000
1.672013	713.136585	11.002000
1.661787	713.827581	11.102000
1.662595	713.771687	11.202000
1.672874	712.968433	11.302000
1.665718	713.552685	11.402000
1.660118	714.026970	11.502000
1.669943	713.248641	11.602000
1.668486	713.291335	11.703000
1.659753	713.957598	11.802000
1.668017	713.406561	11.902000
1.671738	713.073787	12.002000
1.660573	713.888884	12.102000
1.663047	713.750973	12.202000
1.673154	713.081351	12.302000
1.664425	713.616285	12.402000
1.660949	713.839925	12.502000
1.671813	713.076865	12.602000
1.668532	713.430688	12.702000
1.658941	714.047699	12.802000
1.667913	713.364349	12.903000
1.671123	713.100999	13.002000
1.661946	713.848151	13.102000
1.665334	713.555061	13.202000
1.673382	712.992299	13.303000
1.663877	713.724235	13.403000
1.662638	713.934567	13.502000
1.672570	712.978684	13.602000
1.667622	713.327822	13.702000
1.660649	713.928891	13.802000
1.671174	713.288167	13.902000
1.670737	713.159321	14.002000
1.660293	713.871603	14.102000
1.666787	713.496076	14.202000
1.673719	712.991310	14.302000
1.663014	713.636800	14.402000
1.662920	713.695614	14.502000
1.672647	713.048263	14.602000
1.666034	713.557801	14.702000
1.659937	713.896068	14.802000
1.670887	713.060550	14.902000
1.669958	713.244105	15.002000
1.659975	714.017996	15.102000
1.666742	713.433088	15.202000
1.672057	712.999157	15.302000
1.662347	713.771287	15.402000
1.664556	713.683572	15.502000
1.672937	712.998095	15.603000
1.664910	713.549093	15.702000
1.660763	713.892883	15.802000
1.671660	713.141306	15.902000
1.669120	713.240757	16.002000
1.660540	713.873466	16.102000
1.668737	713.319163	16.203000
1.672565	713.083985	16.302000
1.660865	713.850716	16.402000
1.664175	713.616608	16.502000
1.674064	712.900639	16.602000
1.665712	713.527266	16.702000
1.662268	713.745603	16.802000
1.672526	713.017928	16.902000
1.667996	713.355722	17.002000
1.660583	713.899622	17.102000
1.669582	713.200417	17.202000
1.672318	712.995111	17.302000
1.661889	713.831631	17.402000
1.666971	713.483910	17.502000
1.673311	712.906352	17.602000
1.663012	713.657488	17.702000
1.662906	713.752713	17.802000
1.673702	712.986558	17.902000
1.667755	713.297996	18.002000
1.660664	713.824854	18.102000
1.670303	713.216060	18.202000
1.671016	713.176064	18.302000
1.660157	713.858084	18.402000
1.667136	713.347341	18.502000
1.673239	712.976848	18.603000
1.663512	713.759552	18.702000
1.663217	713.666284	18.803000
1.672796	712.908820	18.902000
1.666361	713.401695	19.007000
1.661987	713.910601	19.102000
1.671175	713.085645	19.202000
1.670538	713.086725	19.302000
1.660718	713.854761	19.402000
1.667978	713.394167	19.502000
1.673531	712.904767	19.602000
1.663327	713.639238	19.702000
1.664532	713.601645	19.802000
1.674476	712.911598	19.903000
1.666303	713.449652	20.002000
1.661593	713.776413	20.102000
1.672848	712.965800	20.202000
1.670803	713.161052	20.302000
1.661156	713.815602	20.402000
1.669037	713.232351	20.502000
1.672724	712.989381	20.602000
1.662170	713.757448	20.702000
1.665504	713.462053	20.802000
1.674718	712.800186	20.902000
1.665774	713.510717	21.002000
1.662810	713.738737	21.102000
1.672527	712.935763	21.202000
1.668190	713.257140	21.302000
1.660696	713.862077	21.402000
1.670907	713.171633	21.502000
1.672174	712.971550	21.602000
1.661357	713.790194	21.702000
1.666342	713.498001	21.802000
1.673725	712.956118	21.902000
1.663229	713.567023	22.002000
1.663595	713.603114	22.102000
1.674496	712.895517	22.202000
1.667936	713.392181	22.302000
1.661033	713.757392	22.403000
1.671624	712.981162	22.502000
1.670326	713.132513	22.603000
1.661739	713.858392	22.702000
1.669378	713.171814	22.802000
1.673654	712.832326	22.902000
1.662747	713.664154	23.002000
1.665696	713.515680	23.102000
1.674100	712.808231	23.202000
1.665680	713.392569	23.302000
1.663261	713.614130	23.402000
1.674525	712.919052	23.503000
1.668552	713.217081	23.602000
1.660616	713.748623	23.702000
1.671309	712.992617	23.802000
1.672928	713.004863	23.902000
1.661608	713.771388	24.003000
1.667537	713.301420	24.102000
1.674341	712.821959	24.202000
1.663992	713.611570	24.302000
1.664036	713.557542	24.402000
1.674236	712.800594	24.502000
1.667125	713.283678	24.602000
1.662087	713.735906	24.702000
1.672485	713.000863	24.802000
1.670040	713.122310	24.902000
1.660690	713.772560	25.002000
1.670036	713.155714	25.102000
1.674047	712.901624	25.202000
1.661906	713.691337	25.302000
1.666042	713.411217	25.402000
1.673946	712.800456	25.502000
1.664860	713.544004	25.602000
1.663558	713.636838	25.702000
1.674439	712.793340	25.802000
1.668798	713.214489	25.902000
1.662137	713.744949	26.002000
1.672162	712.960042	26.102000
1.670967	713.036869	26.202000
1.661937	713.739567	26.302000
1.670321	713.168444	26.402000
1.673929	712.755497	26.502000
1.663076	713.565414	26.602000
1.666132	713.351200	26.702000
1.675048	712.838624	26.802000
1.666010	713.387875	26.902000
1.663624	713.540378	27.003000
1.674172	712.805213	27.102000
1.669524	713.212900	27.202000
1.661479	713.713446	27.302000
1.671319	712.982364	27.402000
1.672361	712.964188	27.502000
1.662741	713.761951	27.602000
1.668701	713.177813	27.702000
1.673629	712.796485	27.802000
1.663111	713.610562	27.902000
1.665082	713.599918	28.002000
1.674522	712.762623	28.102000
1.666463	713.289925	28.203000
1.662442	713.630664	28.302000
1.673688	712.957903	28.402000
1.669822	713.130197	28.502000
1.661299	713.720726	28.602000
1.670818	713.029236	28.702000
1.674204	712.905624	28.802000
1.662706	713.611121	28.902000
1.667264	713.264582	29.002000
1.674776	712.720880	29.102000
1.665440	713.536478	29.202000
1.664508	713.531051	29.303000
1.675384	712.697877	29.402000
1.669282	713.105264	29.502000
1.663176	713.685309	29.602000
1.672222	712.957879	29.702000
1.671568	712.967284	29.803000
1.662539	713.616015	29.902000
1.671068	713.114207	30.002000
1.674705	712.729056	30.102000
1.663523	713.523375	30.202000
1.665583	713.391667	30.302000
1.675268	712.783578	30.402000
1.666062	713.406748	30.502000
1.663783	713.538764	30.602000
1.674625	712.727531	30.702000
1.670688	713.123730	30.802000
1.661537	713.719996	30.902000
1.670442	713.064961	31.002000
