probe voltage (V), probe current (A), resistance (9.9e37 if not enabled) , timestamp , status word ,
-2.600000E+01,-2.071865E-07,+9.910000E+37,+6.917959E+02,+2.150800E+04,
-2.590000E+01,-1.758677E-07,+9.910000E+37,+6.928555E+02,+2.150800E+04,
-2.580000E+01,-1.536416E-07,+9.910000E+37,+6.939268E+02,+2.150800E+04,
-2.570000E+01,-1.430336E-07,+9.910000E+37,+6.949980E+02,+2.150800E+04,
-2.560000E+01,-1.304051E-07,+9.910000E+37,+6.960557E+02,+2.150800E+04,
-2.550000E+01,-1.223228E-07,+9.910000E+37,+6.971152E+02,+2.150800E+04,
-2.540000E+01,-1.061584E-07,+9.910000E+37,+6.981934E+02,+2.150800E+04,
-2.530000E+01,-9.150939E-08,+9.910000E+37,+6.992490E+02,+2.150800E+04,
-2.520000E+01,-8.140654E-08,+9.910000E+37,+7.003066E+02,+2.150800E+04,
-2.510000E+01,-6.827283E-08,+9.910000E+37,+7.013682E+02,+2.150800E+04,
-2.500000E+01,-5.918037E-08,+9.910000E+37,+7.024287E+02,+2.150800E+04,
-2.490000E+01,-4.705700E-08,+9.910000E+37,+7.034883E+02,+2.150800E+04,
-2.480000E+01,-3.240790E-08,+9.910000E+37,+7.045518E+02,+2.150800E+04,
-2.470000E+01,-2.281025E-08,+9.910000E+37,+7.056143E+02,+2.150800E+04,
-2.460000E+01,-6.140634E-09,+9.910000E+37,+7.066738E+02,+2.150800E+04,
-2.450000E+01,+2.446590E-09,+9.910000E+37,+7.077334E+02,+2.150800E+04,
-2.440000E+01,+2.315522E-08,+9.910000E+37,+7.087949E+02,+2.150800E+04,
-2.430000E+01,+3.426717E-08,+9.910000E+37,+7.098691E+02,+2.150800E+04,
-2.420000E+01,+4.133839E-08,+9.910000E+37,+7.109277E+02,+2.150800E+04,
-2.410000E+01,+5.396563E-08,+9.910000E+37,+7.119863E+02,+2.150800E+04,
-2.400000E+01,+6.962338E-08,+9.910000E+37,+7.130459E+02,+2.150800E+04,
-2.390000E+01,+8.073535E-08,+9.910000E+37,+7.141025E+02,+2.150800E+04,
-2.380000E+01,+9.235230E-08,+9.910000E+37,+7.151602E+02,+2.150800E+04,
-2.370000E+01,+1.009388E-07,+9.910000E+37,+7.162168E+02,+2.150800E+04,
-2.360000E+01,+1.206373E-07,+9.910000E+37,+7.172773E+02,+2.150800E+04,
-2.350000E+01,+1.337695E-07,+9.910000E+37,+7.183613E+02,+2.150800E+04,
-2.340000E+01,+1.499323E-07,+9.910000E+37,+7.194219E+02,+2.150800E+04,
-2.330000E+01,+1.605392E-07,+9.910000E+37,+7.205020E+02,+2.150800E+04,
-2.320000E+01,+1.827631E-07,+9.910000E+37,+7.215586E+02,+2.150800E+04,
-2.310000E+01,+1.893292E-07,+9.910000E+37,+7.226338E+02,+2.150800E+04,
-2.300000E+01,+2.004411E-07,+9.910000E+37,+7.236934E+02,+2.150800E+04,
-2.290000E+01,+2.166040E-07,+9.910000E+37,+7.247744E+02,+2.150800E+04,
-2.280000E+01,+2.307464E-07,+9.910000E+37,+7.258350E+02,+2.150800E+04,
-2.270000E+01,+2.428685E-07,+9.910000E+37,+7.268955E+02,+2.150800E+04,
-2.260000E+01,+2.595363E-07,+9.910000E+37,+7.279541E+02,+2.150800E+04,
-2.250000E+01,+2.746890E-07,+9.910000E+37,+7.290469E+02,+2.150800E+04,
-2.240000E+01,+2.888315E-07,+9.910000E+37,+7.301035E+02,+2.150800E+04,
-2.230000E+01,+3.085300E-07,+9.910000E+37,+7.311641E+02,+2.150800E+04,
-2.220000E+01,+3.171162E-07,+9.910000E+37,+7.322236E+02,+2.150800E+04,
-2.210000E+01,+3.317639E-07,+9.910000E+37,+7.332813E+02,+2.150800E+04,
-2.200000E+01,+3.448962E-07,+9.910000E+37,+7.343555E+02,+2.150800E+04

current through plasma (-mA) <tab> voltage across plasma (-V) <tab> time (sec)
1.516899	756.515904	0.001000
1.509440	757.081814	0.101000
1.513974	756.756437	0.201000
1.511271	756.959064	0.301000
1.514571	756.666620	0.401000
1.515767	756.588797	0.501000
1.508783	757.152809	0.601000
1.510471	757.030307	0.701000
1.509974	757.059676	0.801000
1.516113	756.581390	0.901000
1.515778	756.585093	1.001000
1.510912	756.972367	1.101000
1.508258	757.136730	1.201000
1.511752	756.935506	1.301000
1.515010	756.687452	1.401000
1.515413	756.639850	1.501000
1.512052	756.912016	1.601000
1.510280	757.015907	1.701000
1.508267	757.189899	1.801000
1.514226	756.720451	1.901000
1.515448	756.626143	2.001000
1.514951	756.666869	2.101000
1.513615	756.774802	2.201000
1.508687	757.161853	2.301000
1.510595	757.013291	2.401000
1.515298	756.643628	2.501000
1.517421	756.466797	2.601000
1.512759	756.816475	2.701000
1.510220	757.065592	2.801000
1.512287	756.943534	2.901000
1.513675	756.838238	3.001000
1.515598	756.665153	3.101000
1.510968	756.997199	3.201000
1.509885	757.064268	3.301000
1.509303	757.131171	3.401000
1.512251	756.911132	3.501000
1.518031	756.470501	3.601000
1.514055	756.753712	3.701000
1.509184	757.150933	3.801000
1.509106	757.154193	3.901000
1.510525	757.040303	4.001000
1.513184	756.820903	4.101000
1.514616	756.709154	4.201000
1.510323	757.061411	4.301000
1.507080	757.343261	4.401000
1.507058	757.352120	4.501000
1.514835	756.751742	4.601000
1.518674	756.400668	4.701000
1.512777	756.862388	4.801000
1.508511	757.200789	4.901000
1.508180	757.232372	5.001000
1.513307	756.857351	5.101000
1.516385	756.639130	5.201000
1.515758	756.667805	5.301000
1.508221	757.219828	5.401000
1.509026	757.162355	5.501000
1.508873	757.177175	5.601000
1.513486	756.836042	5.701000
1.514816	756.720636	5.801000
1.512559	756.914766	5.901000
1.509404	757.167389	6.001000
1.510424	757.101972	6.101000
1.513649	756.837301	6.201000
1.514785	756.730160	6.301000
1.512591	756.935320	6.401000
1.509473	757.159452	6.501000
1.507999	757.300354	6.601000
1.508243	757.292794	6.701000
1.514433	756.817603	6.801000
1.517463	756.541919	6.901000
1.511168	757.006010	7.001000
1.508147	757.259911	7.101000
1.508931	757.217394	7.201000
1.513115	756.904096	7.301000
1.516985	756.605283	7.401000
1.512335	756.971065	7.501000
1.505733	757.461774	7.601000
1.507685	757.335555	7.701000
1.512554	756.957549	7.801000
1.516373	756.634112	7.901000
1.514899	756.782159	8.001000
1.509681	757.174955	8.101000
1.509274	757.221446	8.201000
1.508141	757.331406	8.301000
1.514205	756.844164	8.401000
1.517345	756.552356	8.501000
1.509303	757.174120	8.601000
1.507344	757.325753	8.701000
1.509064	757.208703	8.801000
1.512837	756.959275	8.901000
1.514630	756.816960	9.001000
1.512622	756.980114	9.101000
1.508079	757.283167	9.201000
1.508460	757.257085	9.301000
1.510657	757.113596	9.401000
1.511584	757.052183	9.501000
1.513153	756.928537	9.601000
1.511623	757.063962	9.701000
1.507548	757.372583	9.801000
1.508560	757.275356	9.901000
1.512527	756.932759	10.001000
1.514910	756.757103	10.101000
1.513189	756.894983	10.201000
1.507932	757.309607	10.301000
1.509388	757.222549	10.401000
1.512991	756.957349	10.501000
1.514494	756.836521	10.601000
1.513725	756.871136	10.701000
1.509429	757.216717	10.801000
1.506975	757.410660	10.901000
1.511365	757.103151	11.001000
1.514399	756.867891	11.101000
1.513643	756.915801	11.201000
1.509719	757.233525	11.301000
1.506491	757.466665	11.401000
1.508701	757.283313	11.501000
1.513177	756.943062	11.601000
1.514371	756.869814	11.701000
1.510769	757.125330	11.801000
1.509802	757.196122	11.901000
1.507042	757.435403	12.001000
1.511313	757.113173	12.101000
1.513011	756.938173	12.201000
1.515938	756.727374	12.301000
1.511971	757.039376	12.401000
1.506118	757.521657	12.501000
1.509035	757.318819	12.601000
1.511916	757.100479	12.701000
1.513708	756.968546	12.801000
1.510690	757.155105	12.901000
1.507806	757.373492	13.001000
1.508991	757.278351	13.101000
1.510248	757.196198	13.201000
1.512317	757.036707	13.301000
1.514959	756.827705	13.401000
1.508619	757.310585	13.501000
1.506878	757.471959	13.601000
1.507685	757.401400	13.701000
1.512221	757.036303	13.801000
1.514847	756.822369	13.901000
1.511926	757.054449	14.001000
1.506476	757.497718	14.101000
1.508082	757.392140	14.201000
1.512805	757.061337	14.301000
1.514181	756.921146	14.401000
1.511867	757.056893	14.501000
1.509204	757.276944	14.601000
1.507335	757.443592	14.701000
1.509490	757.300639	14.801000
1.514336	756.917621	14.902000
1.513430	756.986885	15.001000
1.509987	757.256875	15.101000
1.508457	757.331979	15.201000
1.509247	757.286939	15.301000
1.512525	757.038783	15.401000
1.512197	757.058702	15.501000
1.511400	757.149106	15.601000
1.508083	757.398731	15.701000
1.506778	757.534628	15.801000
1.508499	757.386014	15.901000
1.516214	756.780801	16.001000
1.513701	756.939846	16.101000
1.510307	757.212124	16.201000
1.507680	757.448329	16.301000
1.507971	757.451811	16.401000
1.512067	757.114146	16.501000
1.513067	757.016921	16.601000
1.511077	757.150118	16.701000
1.505972	757.540005	16.801000
1.508443	757.342468	16.901000
1.511581	757.158267	17.001000
1.512796	757.050420	17.101000
1.511444	757.152240	17.201000
1.508398	757.425625	17.301000
1.506457	757.550710	17.401000
1.508231	757.399622	17.501000
1.512492	757.088705	17.601000
1.512755	757.054702	17.701000
1.509400	757.323245	17.801000
1.507637	757.479514	17.901000
1.508172	757.455590	18.001000
1.511489	757.180972	18.101000
1.512758	757.067633	18.201000
1.510902	757.183511	18.301000
1.508978	757.319828	18.401000
1.506669	757.542524	18.501000
1.510700	757.250868	18.601000
1.513249	757.052322	18.701000
1.513924	757.033345	18.801000
1.507869	757.461035	18.901000
1.506682	757.548228	19.001000
1.507523	757.482836	19.101000
1.513127	757.051561	19.201000
1.514588	756.950184	19.301000
1.511717	757.203146	19.401000
1.507343	757.496668	19.501000
1.506821	757.524967	19.601000
1.510978	757.223384	19.701000
1.514169	756.968271	19.801000
1.512753	757.043008	19.901000
1.508429	757.399252	20.001000
1.506543	757.537804	20.101000
1.509078	757.384162	20.201000
1.515335	756.925649	20.301000
1.514385	756.972566	20.401000
1.508936	757.380902	20.501000
1.506092	757.608604	20.601000
1.507274	757.509928	20.701000
1.511898	757.152883	20.801000
1.512389	757.146784	20.901000
1.510666	757.247238	21.001000
1.507505	757.497200	21.101000
1.507779	757.480370	21.201000
1.508967	757.380361	21.301000
1.512865	757.058586	21.401000
1.513538	757.002307	21.501000
1.508613	757.400882	21.601000
1.504776	757.745674	21.701000
1.508191	757.472369	21.801000
1.511362	757.230282	21.901000
1.512463	757.117448	22.001000
1.510514	757.274647	22.101000
1.507337	757.498962	22.201000
1.506404	757.591788	22.301000
1.509167	757.425699	22.401000
1.512215	757.198537	22.501000
1.512406	757.131125	22.601000
1.508559	757.454663	22.701000
1.506463	757.612610	22.801000
1.508382	757.424840	22.901000
1.512718	757.108624	23.001000
1.512273	757.140540	23.101000
1.509412	757.374509	23.201000
1.506573	757.599179	23.301000
1.506182	757.614370	23.401000
1.510025	757.369444	23.501000
1.512628	757.133005	23.601000
1.511724	757.186139	23.701000
1.508398	757.474410	23.801000
1.506299	757.626100	23.901000
1.507991	757.527708	24.001000
1.511740	757.238974	24.101000
1.513208	757.132579	24.201000
1.508095	757.494357	24.301000
1.506652	757.579143	24.401000
1.508137	757.502502	24.501000
1.511149	757.301397	24.601000
1.512406	757.165749	24.701000
1.510360	757.329889	24.801000
1.508343	757.461888	24.901000
1.506351	757.640311	25.001000
1.507884	757.545117	25.101000
1.512010	757.199234	25.201000
1.513211	757.087890	25.301000
1.507716	757.519509	25.401000
1.504790	757.809141	25.501000
1.507393	757.605441	25.601000
1.510861	757.296567	25.701000
1.512609	757.164533	25.801000
1.510601	757.272870	25.901000
1.505650	757.668096	26.001000
1.506354	757.642089	26.101000
1.507916	757.528938	26.201000
1.511707	757.218029	26.301000
1.511003	757.269684	26.401000
1.507769	757.559209	26.501000
1.505748	757.660376	26.601000
1.507146	757.591164	26.701000
1.511493	757.264426	26.801000
1.512125	757.234711	26.901000
1.509443	757.448702	27.001000
1.506322	757.709563	27.101000
1.507172	757.628754	27.201000
1.509713	757.391770	27.301000
1.511866	757.237949	27.401000
1.510943	757.285686	27.501000
1.506973	757.591946	27.601000
1.505497	757.727133	27.701000
1.507029	757.619207	27.801000
1.512622	757.187199	27.901000
1.511991	757.207605	28.001000
1.508350	757.465177	28.101000
1.505661	757.712850	28.201000
1.506574	757.659646	28.301000
1.509923	757.418053	28.401000
1.511494	757.277389	28.501000
1.509761	757.421268	28.601000
1.507023	757.627418	28.701000
1.505614	757.750151	28.801000
1.507191	757.624824	28.901000
1.513086	757.153772	29.001000
1.512540	757.196345	29.101000
1.507456	757.592097	29.201000
1.504743	757.816693	29.301000
1.507663	757.587406	29.401000
1.511693	757.279165	29.501000
1.512190	757.211988	29.601000
1.509138	757.469925	29.701000
1.505853	757.697871	29.801000
1.506453	757.682759	29.901000
1.508814	757.537338	30.001000
1.511711	757.316033	30.101000
1.511370	757.297020	30.201000
1.506463	757.684257	30.301000
1.504781	757.806252	30.401000
1.507689	757.612753	30.501000
1.511374	757.308421	30.601000
1.512142	757.259025	30.701000
1.508815	757.491260	30.801000
1.504980	757.779349	30.901000
1.506674	757.662983	31.001000
1.508945	757.497438	31.101000
1.511825	757.265020	31.201000
1.509472	757.424025	31.301000
1.506892	757.657355	31.401000
1.503687	757.943639	31.501000
1.507365	757.638681	31.601000
1.511255	757.346328	31.701000
1.511674	757.290142	31.801000
1.507465	757.594232	31.901000
1.505134	757.812326	32.001000
1.506400	757.712822	32.101000
1.510097	757.441444	32.201000
1.510999	757.368379	32.301000
1.509134	757.470814	32.401000
1.505741	757.753506	32.501000
1.505107	757.796738	32.601000
1.508552	757.540891	32.701000
1.512519	757.230718	32.801000
1.510500	757.367268	32.901000
1.506481	757.728894	33.001000
1.504500	757.892974	33.101000
1.506919	757.680981	33.201000
1.511212	757.368231	33.301000
1.511174	757.358747	33.401000
1.508268	757.573800	33.501000
1.506164	757.704687	33.601000
1.506220	757.754298	33.701000
1.508334	757.629865	33.801000
1.512314	757.308873	33.901000
1.510374	757.409623	34.001000
1.506576	757.687251	34.101000
1.504931	757.816623	34.201000
1.507308	757.661728	34.301000
1.511578	757.321271	34.401000
1.511098	757.375694	34.501000
1.507847	757.648088	34.601000
1.504582	757.884062	34.701000
1.506460	757.782027	34.801000
1.509926	757.500492	34.901000
1.511670	757.293316	35.001000
1.510276	757.415167	35.101000
1.505444	757.828476	35.201000
1.504027	757.960434	35.301000
1.507280	757.694135	35.401000
1.511815	757.338566	35.501000
1.511538	757.375990	35.601000
1.505263	757.859694	35.701000
1.503342	757.973163	35.801000
1.506371	757.736597	35.901000
1.510643	757.457701	36.001000
1.511885	757.345281	36.104000
1.508761	757.596222	36.201000
1.505056	757.871101	36.301000
1.505245	757.866257	36.401000
1.508668	757.603418	36.501000
1.511486	757.373081	36.601000
1.510759	757.460702	36.701000
1.504901	757.907932	36.801000
1.503629	758.001378	36.901000
1.507054	757.757432	37.001000
1.510285	757.505566	37.101000
1.510439	757.483661	37.201000
1.507044	757.688704	37.301000
1.504611	757.892161	37.401000
1.504511	757.916947	37.501000
1.507852	757.698094	37.601000
1.511385	757.405670	37.701000
1.510035	757.474625	37.801000
1.504429	757.894673	37.901000
1.503446	758.014344	38.001000
1.506852	757.730449	38.101000
1.510851	757.458739	38.201000
1.509832	757.542268	38.301000
1.505669	757.849746	38.401000
1.503592	758.044273	38.501000
1.505852	757.844403	38.601000
1.509121	757.588973	38.701000
1.510347	757.462737	38.801000
1.508942	757.564245	38.901000
1.504109	757.930337	39.001000
1.502731	758.089965	39.101000
1.508594	757.669208	39.201000
1.511105	757.401619	39.301000
1.510127	757.517459	39.401000
1.505773	757.814884	39.501000
1.503925	757.964890	39.601000
1.506106	757.871101	39.701000
1.510254	757.533761	39.801000
1.510556	757.540457	39.901000
1.507343	757.757085	40.001000
1.504377	757.941435	40.101000
1.504201	757.965747	40.201000
1.508803	757.713443	40.301000
1.510891	757.444332	40.401000
1.509557	757.526004	40.501000
1.505992	757.807478	40.601000
1.503458	758.041316	40.701000
1.506230	757.819032	40.801000
1.510396	757.496697	40.901000
1.509592	757.545413	41.001000
1.506472	757.794325	41.101000
1.504042	757.986120	41.201000
1.504802	757.950647	41.301000
1.508551	757.699475	41.401000
1.511307	757.438581	41.501000
1.508519	757.632084	41.601000
1.504284	757.977392	41.701000
1.503192	758.069894	41.801000
1.507136	757.779215	41.901000
1.510960	757.479749	42.001000
1.509152	757.606833	42.101000
1.505319	757.917633	42.201000
1.503014	758.059701	42.301000
1.505615	757.872490	42.401000
1.508565	757.639050	42.501000
1.510339	757.496089	42.601000
1.507646	757.722514	42.701000
1.503652	758.027235	42.801000
1.503951	758.022417	42.901000
1.507902	757.749580	43.001000
1.510591	757.510385	43.101000
1.509057	757.593047	43.201000
1.505470	757.863057	43.301000
1.503484	758.035768	43.401000
1.506095	757.885300	43.501000
1.509844	757.591090	43.601000
1.509458	757.604478	43.701000
1.506371	757.802750	43.801000
1.503838	757.969748	43.901000
1.503961	758.030713	44.001000
1.508504	757.692814	44.101000
1.511553	757.431541	44.201000
1.508936	757.646088	44.301000
1.504152	758.049970	44.401000
1.503023	758.140652	44.501000
1.506759	757.815220	44.601000
1.510380	757.545651	44.701000
1.509378	757.595195	44.801000
1.505768	757.890222	44.901000
1.502837	758.115012	45.001000
1.504562	758.010047	45.101000
1.507653	757.818401	45.201000
1.510606	757.538047	45.301000
1.507381	757.753358	45.401000
1.504374	757.984866	45.501000
1.503183	758.064158	45.601000
1.506813	757.872406	45.701000
1.510702	757.543561	45.801000
1.509095	757.681277	45.901000
1.504823	758.036045	46.001000
