probe voltage (V), probe current (A), resistance (9.9e37 if not enabled) , timestamp , status word ,
-2.600000E+01,-1.900108E-07,+9.910000E+37,+7.723545E+02,+2.150800E+04,
-2.590000E+01,-1.566718E-07,+9.910000E+37,+7.734111E+02,+2.150800E+04,
-2.580000E+01,-1.445482E-07,+9.910000E+37,+7.744678E+02,+2.150800E+04,
-2.570000E+01,-1.213119E-07,+9.910000E+37,+7.755293E+02,+2.150800E+04,
-2.560000E+01,-1.152503E-07,+9.910000E+37,+7.766133E+02,+2.150800E+04,
-2.550000E+01,-1.066630E-07,+9.910000E+37,+7.776699E+02,+2.150800E+04,
-2.540000E+01,-9.150885E-08,+9.910000E+37,+7.787305E+02,+2.150800E+04,
-2.530000E+01,-7.584969E-08,+9.910000E+37,+7.798125E+02,+2.150800E+04,
-2.520000E+01,-6.978789E-08,+9.910000E+37,+7.808838E+02,+2.150800E+04,
-2.510000E+01,-5.210812E-08,+9.910000E+37,+7.819434E+02,+2.150800E+04,
-2.500000E+01,-4.048997E-08,+9.910000E+37,+7.830039E+02,+2.150800E+04,
-2.490000E+01,-3.089235E-08,+9.910000E+37,+7.840615E+02,+2.150800E+04,
-2.480000E+01,-1.270739E-08,+9.910000E+37,+7.851201E+02,+2.150800E+04,
-2.470000E+01,-6.645738E-09,+9.910000E+37,+7.861836E+02,+2.150800E+04,
-2.460000E+01,+3.456752E-09,+9.910000E+37,+7.872412E+02,+2.150800E+04,
-2.450000E+01,+2.214494E-08,+9.910000E+37,+7.883008E+02,+2.150800E+04,
-2.440000E+01,+2.214492E-08,+9.910000E+37,+7.893594E+02,+2.150800E+04,
-2.430000E+01,+3.982297E-08,+9.910000E+37,+7.904209E+02,+2.150800E+04,
-2.420000E+01,+5.598570E-08,+9.910000E+37,+7.914805E+02,+2.150800E+04,
-2.410000E+01,+6.457215E-08,+9.910000E+37,+7.925430E+02,+2.150800E+04,
-2.400000E+01,+8.073490E-08,+9.910000E+37,+7.936279E+02,+2.150800E+04,
-2.390000E+01,+9.487736E-08,+9.910000E+37,+7.946875E+02,+2.150800E+04,
-2.380000E+01,+1.059892E-07,+9.910000E+37,+7.957432E+02,+2.150800E+04,
-2.370000E+01,+1.181112E-07,+9.910000E+37,+7.968164E+02,+2.150800E+04,
-2.360000E+01,+1.231620E-07,+9.910000E+37,+7.978965E+02,+2.150800E+04,
-2.350000E+01,+1.428605E-07,+9.910000E+37,+7.989521E+02,+2.150800E+04,
-2.340000E+01,+1.580130E-07,+9.910000E+37,+8.000107E+02,+2.150800E+04,
-2.330000E+01,+1.716503E-07,+9.910000E+37,+8.010898E+02,+2.150800E+04,
-2.320000E+01,+1.862978E-07,+9.910000E+37,+8.021455E+02,+2.150800E+04,
-2.310000E+01,+1.918536E-07,+9.910000E+37,+8.032051E+02,+2.150800E+04,
-2.300000E+01,+2.145826E-07,+9.910000E+37,+8.042939E+02,+2.150800E+04,
-2.290000E+01,+2.287252E-07,+9.910000E+37,+8.053516E+02,+2.150800E+04,
-2.280000E+01,+2.458979E-07,+9.910000E+37,+8.064102E+02,+2.150800E+04,
-2.270000E+01,+2.575149E-07,+9.910000E+37,+8.074736E+02,+2.150800E+04,
-2.260000E+01,+2.590296E-07,+9.910000E+37,+8.085342E+02,+2.150800E+04,
-2.250000E+01,+2.908504E-07,+9.910000E+37,+8.096084E+02,+2.150800E+04,
-2.240000E+01,+2.913553E-07,+9.910000E+37,+8.106680E+02,+2.150800E+04,
-2.230000E+01,+3.140844E-07,+9.910000E+37,+8.117393E+02,+2.150800E+04,
-2.220000E+01,+3.257012E-07,+9.910000E+37,+8.127969E+02,+2.150800E+04,
-2.210000E+01,+3.408538E-07,+9.910000E+37,+8.138760E+02,+2.150800E+04,
-2.200000E+01,+3.534811E-07,+9.910000E+37,+8.149570E+02,+2.150800E+04

current through plasma (-mA) <tab> voltage across plasma (-V) <tab> time (sec)
1.501007	758.607942	0.001000
1.498776	758.811898	0.101000
1.503036	758.524938	0.201000
1.506198	758.264094	0.301000
1.504389	758.420381	0.401000
1.501056	758.653884	0.501000
1.498408	758.904129	0.601000
1.500859	758.641068	0.701000
1.504249	758.442342	0.801000
1.505664	758.336364	0.901000
1.503246	758.434753	1.001000
1.498684	758.821320	1.101000
1.499010	758.810639	1.201000
1.503245	758.389784	1.301000
1.506032	758.217729	1.401000
1.504242	758.460798	1.501000
1.500163	758.732121	1.601000
1.499101	758.766574	1.701000
1.500967	758.684345	1.801000
1.504256	758.423122	1.901000
1.505917	758.243356	2.001000
1.502683	758.526510	2.101000
1.498639	758.903254	2.201000
1.498493	758.896408	2.301000
1.503185	758.543758	2.401000
1.506176	758.344086	2.501000
1.503975	758.463795	2.601000
1.499670	758.760486	2.701000
1.498523	758.852198	2.801000
1.501913	758.613612	2.901000
1.505139	758.332363	3.001000
1.504952	758.380897	3.101000
1.501649	758.621580	3.201000
1.498851	758.888576	3.302000
1.499646	758.811725	3.401000
1.503677	758.434753	3.501000
1.506286	758.252540	3.601000
1.503222	758.524003	3.701000
1.498902	758.876595	3.801000
1.498699	758.940095	3.901000
1.502441	758.607835	4.001000
1.504588	758.449529	4.101000
1.504094	758.410762	4.201000
1.500987	758.683322	4.301000
1.498627	758.812787	4.401000
1.499897	758.789370	4.501000
1.503499	758.561244	4.601000
1.505333	758.359788	4.701000
1.503481	758.513501	4.801000
1.498602	758.860474	4.901000
1.498446	758.900943	5.001000
1.502477	758.631337	5.101000
1.505748	758.308860	5.201000
1.504111	758.494752	5.301000
1.499735	758.846179	5.401000
1.497985	758.976165	5.501000
1.499737	758.830255	5.601000
1.504096	758.509919	5.701000
1.505429	758.325757	5.801000
1.502521	758.550285	5.901000
1.498142	758.919289	6.001000
1.498370	758.969302	6.101000
1.503120	758.558207	6.201000
1.505510	758.397790	6.301000
1.503093	758.531073	6.401000
1.498562	758.839120	6.501000
1.498437	758.899313	6.601000
1.501599	758.682775	6.701000
1.504441	758.532658	6.801000
1.503985	758.507871	6.901000
1.500935	758.703315	7.001000
1.498191	758.938725	7.101000
1.499487	758.849329	7.206000
1.503548	758.561991	7.302000
1.505532	758.406205	7.401000
1.502453	758.577132	7.501000
1.498301	758.923378	7.601000
1.498023	758.996359	7.701000
1.501817	758.693822	7.801000
1.505135	758.395715	7.901000
1.504068	758.462443	8.001000
1.500512	758.707666	8.101000
1.498297	758.914944	8.201000
1.499647	758.885391	8.302000
1.503167	758.617951	8.401000
1.505205	758.407269	8.501000
1.502808	758.548520	8.601000
1.497943	758.955096	8.701000
1.498080	758.960972	8.801000
1.502738	758.605035	8.901000
1.505575	758.407644	9.001000
1.502976	758.576543	9.101000
1.498845	758.954315	9.201000
1.497542	759.049031	9.301000
1.500669	758.747893	9.401000
1.504210	758.491960	9.501000
1.504717	758.425501	9.601000
1.501012	758.753967	9.701000
1.498011	758.964388	9.801000
1.498314	758.972876	9.901000
1.502802	758.631932	10.001000
1.505271	758.427419	10.101000
1.502641	758.617658	10.201000
1.498667	758.917101	10.301000
1.498052	758.994755	10.401000
1.501370	758.766857	10.501000
1.504159	758.567357	10.601000
1.503883	758.560506	10.701000
1.500687	758.732776	10.801000
1.497834	758.999569	10.901000
1.499098	758.887386	11.001000
1.502908	758.572357	11.101000
1.505152	758.407486	11.201000
1.502167	758.662583	11.301000
1.497146	759.057450	11.401000
1.497563	759.047623	11.501000
1.501906	758.745305	11.601000
1.504861	758.529457	11.701000
1.503252	758.571396	11.801000
1.498993	758.910383	11.901000
1.497448	759.026381	12.001000
1.499692	758.883312	12.101000
1.503527	758.619288	12.201000
1.504518	758.493625	12.301000
1.501072	758.741818	12.401000
1.497271	759.045432	12.501000
1.498193	758.995693	12.601000
1.503012	758.635562	12.701000
1.505049	758.502933	12.801000
1.501807	758.731377	12.901000
1.497682	759.036509	13.001000
1.498145	759.025418	13.101000
1.501289	758.744411	13.201000
1.503847	758.518363	13.301000
1.503147	758.632104	13.401000
1.500156	758.853403	13.501000
1.497451	759.085708	13.601000
1.499062	758.982997	13.701000
1.502885	758.708342	13.801000
1.504723	758.490536	13.901000
1.501305	758.743744	14.001000
1.497494	759.079569	14.101000
1.498032	759.005693	14.201000
1.501721	758.756113	14.301000
1.504157	758.562354	14.401000
1.502746	758.650032	14.501000
1.499242	758.941021	14.601000
1.497275	759.087708	14.701000
1.499733	758.909084	14.801000
1.503671	758.576025	14.901000
1.504324	758.592841	15.001000
1.500376	758.884619	15.101000
1.496289	759.189501	15.201000
1.498239	759.043475	15.301000
1.502884	758.668841	15.401000
1.504642	758.497346	15.501000
1.501501	758.750561	15.601000
1.497585	759.079979	15.701000
1.497448	759.050883	15.801000
1.500563	758.882497	15.901000
1.503638	758.643238	16.001000
1.503231	758.627956	16.101000
1.499478	758.913167	16.201000
1.497202	759.075052	16.301000
1.498964	759.002262	16.401000
1.503499	758.608142	16.501000
1.503571	758.681738	16.601000
1.500518	758.866051	16.701000
1.496886	759.131927	16.801000
1.498262	759.017123	16.901000
1.501836	758.790793	17.001000
1.503740	758.578722	17.101000
1.502140	758.742114	17.201000
1.498843	758.955945	17.301000
1.496874	759.183870	17.401000
1.499143	759.020193	17.501000
1.503046	758.665088	17.601000
1.504177	758.570506	17.701000
1.499919	758.865954	17.801000
1.496785	759.158226	17.901000
1.497979	759.094972	18.001000
1.502623	758.757153	18.101000
1.503793	758.672108	18.201000
1.501117	758.870920	18.301000
1.497478	759.131112	18.401000
1.497013	759.160670	18.501000
1.500399	758.917982	18.601000
1.503729	758.679382	18.701000
1.503045	758.691369	18.801000
1.498401	759.055105	18.901000
1.495970	759.251964	19.001000
1.498803	759.076172	19.101000
1.503672	758.640446	19.201000
1.503866	758.624052	19.301000
1.499652	758.916977	19.401000
1.497215	759.127629	19.501000
1.497929	759.103184	19.601000
1.501230	758.892748	19.701000
1.503322	758.728414	19.801000
1.501705	758.811157	19.901000
1.498083	759.052184	20.001000
1.496445	759.187475	20.101000
1.499340	759.018583	20.201000
1.503343	758.702131	20.301000
1.503333	758.709575	20.401000
1.498665	759.048305	20.501000
1.496097	759.257164	20.601000
1.498575	759.034493	20.701000
1.502355	758.769527	20.801000
1.503447	758.668740	20.901000
1.500536	758.902173	21.001000
1.496996	759.214009	21.101000
1.496461	759.291834	21.201000
1.500256	758.971320	21.301000
1.503883	758.683322	21.401000
1.502710	758.718105	21.501000
1.497538	759.142217	21.601000
1.495426	759.313465	21.701000
1.498832	759.070688	21.801000
1.503691	758.726255	21.901000
1.503076	758.755671	22.001000
1.498596	759.044972	22.101000
1.496710	759.214268	22.201000
1.498262	759.081108	22.301000
1.501398	758.848903	22.401000
1.503418	758.718193	22.501000
1.500959	758.887333	22.601000
1.496897	759.212879	22.701000
1.496220	759.274890	22.801000
1.500032	759.033456	22.901000
1.503707	758.692122	23.001000
1.502384	758.794934	23.101000
1.498221	759.115188	23.201000
1.495698	759.341946	23.301000
1.498280	759.166457	23.401000
1.501426	758.899182	23.501000
1.502866	758.764926	23.601000
1.500493	758.894008	23.701000
1.496924	759.178746	23.801000
1.496437	759.260828	23.901000
1.500157	759.004804	24.001000
1.503762	758.717163	24.101000
1.501886	758.841640	24.201000
1.497364	759.178491	24.301000
1.495646	759.308980	24.401000
1.499114	759.056082	24.501000
1.502822	758.753004	24.601000
1.502473	758.783599	24.701000
1.498473	759.091411	24.801000
1.496024	759.298348	24.901000
1.497511	759.209250	25.001000
1.501151	758.901328	25.101000
1.503443	758.709148	25.201000
1.500463	758.955039	25.301000
1.496212	759.279866	25.401000
1.495949	759.330093	25.501000
1.500122	758.986284	25.601000
1.503618	758.728044	25.701000
1.501544	758.888545	25.801000
1.497562	759.188647	25.901000
1.496049	759.281750	26.001000
1.499002	759.059315	26.101000
1.501731	758.881412	26.201000
1.502393	758.850104	26.301000
1.499555	759.032399	26.401000
1.496285	759.293497	26.501000
1.496630	759.267733	26.601000
1.500846	758.938169	26.701000
1.503330	758.731303	26.801000
1.500957	758.900973	26.901000
1.496630	759.261195	27.001000
1.495805	759.341798	27.101000
1.499169	759.106150	27.201000
1.502397	758.832715	27.301000
1.501545	758.880448	27.401000
1.498203	759.105187	27.501000
1.495557	759.363874	27.601000
1.497276	759.246283	27.701000
1.501392	758.933873	27.801000
1.503126	758.777589	27.901000
1.499785	759.037052	28.001000
1.495441	759.370763	28.101000
1.495905	759.343220	28.201000
1.500934	758.924615	28.301000
1.503365	758.756857	28.401000
1.500340	758.997644	28.501000
1.496078	759.354910	28.601000
1.495792	759.355132	28.701000
1.498989	759.120397	28.801000
1.502238	758.875336	28.901000
1.501993	758.869436	29.001000
1.498158	759.143187	29.101000
1.495350	759.393768	29.201000
1.497032	759.306572	29.301000
1.501368	758.960208	29.401000
1.502912	758.818801	29.501000
1.499094	759.097485	29.601000
1.495939	759.331459	29.701000
1.496530	759.274489	29.801000
1.499873	759.061563	29.901000
1.502379	758.866296	30.001000
1.501360	758.956941	30.101000
1.497797	759.174978	30.201000
1.495443	759.406562	30.301000
1.497305	759.253716	30.401000
1.501549	758.911284	30.501000
1.502620	758.812307	30.601000
1.498521	759.150283	30.701000
1.494789	759.457402	30.801000
1.496013	759.395358	30.901000
1.500943	759.003273	31.001000
1.502826	758.814688	31.101000
1.500458	758.981367	31.201000
1.496176	759.274310	31.301000
1.495440	759.378667	31.401000
1.498505	759.203843	31.501000
1.502256	758.870991	31.601000
1.501755	758.909727	31.701000
1.497868	759.181624	31.801000
1.494545	759.439733	31.901000
1.497188	759.241045	32.001000
1.501597	758.919175	32.101000
1.502588	758.873928	32.201000
1.498374	759.174286	32.301000
1.495052	759.458832	32.401000
1.495968	759.367282	32.501000
1.499718	759.111263	32.601000
1.502111	758.895119	32.701000
1.500427	758.980460	32.801000
1.497078	759.240678	32.901000
1.495137	759.413524	33.001000
1.497916	759.260531	33.101000
1.501721	758.952760	33.201000
1.502139	758.882227	33.301000
1.497900	759.208749	33.401000
1.494744	759.455808	33.501000
1.496629	759.341353	33.601000
1.500939	759.024307	33.701000
1.502104	758.936243	33.801000
1.499072	759.172301	33.901000
1.495434	759.445607	34.001000
1.495560	759.413260	34.101000
1.498746	759.161649	34.201000
1.502167	758.894145	34.301000
1.501266	758.962694	34.401000
1.496492	759.337723	34.501000
1.494103	759.566396	34.601000
1.497652	759.302867	34.701000
1.502277	758.904068	34.801000
1.501895	758.925795	34.901000
1.497253	759.279465	35.001000
1.494605	759.486181	35.101000
1.496574	759.382616	35.201000
1.500537	759.082145	35.301000
1.501612	758.987968	35.401000
1.499456	759.113483	35.501000
1.495794	759.404971	35.601000
1.495272	759.439129	35.701000
1.498557	759.200418	35.801000
1.502245	758.921955	35.901000
1.500813	759.009620	36.001000
1.496314	759.380046	36.101000
1.494602	759.495813	36.201000
1.497311	759.302239	36.301000
1.500463	759.053045	36.401000
1.501767	758.952429	36.501000
1.498723	759.165386	36.601000
1.495715	759.428730	36.701000
1.495259	759.489960	36.801000
1.498760	759.242011	36.901000
1.502381	758.916056	37.001000
1.500606	759.049268	37.101000
1.495996	759.381453	37.201000
1.494512	759.518486	37.301000
1.497514	759.302647	37.401000
1.501592	759.004702	37.501000
1.500912	759.047889	37.601000
1.496967	759.333417	37.701000
1.494394	759.541243	37.801000
1.496059	759.417524	37.901000
1.499897	759.120074	38.001000
1.502033	758.949461	38.101000
1.499646	759.138227	38.201000
1.495102	759.502772	38.301000
1.494321	759.577021	38.401000
1.498666	759.238603	38.501000
1.502055	758.966282	38.601000
1.500400	759.074959	38.701000
1.496003	759.404562	38.801000
1.494629	759.540927	38.901000
1.497204	759.347309	39.001000
1.500290	759.160382	39.101000
1.500987	759.069265	39.201000
1.498190	759.240442	39.301000
1.494840	759.499517	39.401000
1.495548	759.440114	39.501000
1.499231	759.175793	39.601000
1.502020	758.977926	39.701000
1.499570	759.168467	39.801000
1.495259	759.532762	39.901000
1.494185	759.597800	40.001000
1.497883	759.298609	40.101000
1.501076	759.057031	40.201000
1.500260	759.096358	40.301000
1.496883	759.381972	40.401000
1.494723	759.573168	40.501000
1.496014	759.466481	40.601000
1.499826	759.169486	40.701000
1.501971	759.003421	40.801000
1.498457	759.243813	40.901000
1.494414	759.566434	41.001000
1.494152	759.586079	41.101000
1.499153	759.224063	41.201000
1.501964	759.013598	41.301000
1.499518	759.183907	41.401000
1.495096	759.547139	41.501000
1.494267	759.580726	41.601000
1.497679	759.328356	41.701000
1.501068	759.049386	41.801000
1.500475	759.118742	41.901000
1.497186	759.356836	42.001000
1.494590	759.574486	42.101000
1.495427	759.549446	42.201000
1.499905	759.184290	42.301000
1.501613	758.997989	42.401000
1.498371	759.237937	42.501000
1.494391	759.571846	42.601000
1.494670	759.569494	42.701000
1.498438	759.293021	42.801000
1.500751	759.135409	42.901000
1.499445	759.197400	43.001000
1.496552	759.415567	43.101000
1.493896	759.604859	43.201000
1.496264	759.460408	43.301000
1.500119	759.182969	43.401000
1.501297	759.077709	43.501000
1.497524	759.373258	43.601000
1.493738	759.656608	43.701000
1.494976	759.541974	43.801000
1.499198	759.232359	43.901000
1.501971	758.970832	44.001000
1.499005	759.223935	44.101000
1.494556	759.564855	44.201000
1.494292	759.625205	44.301000
1.497352	759.398470	44.401000
1.500339	759.184379	44.501000
1.500573	759.099711	44.601000
1.496346	759.444909	44.701000
1.493102	759.701377	44.801000
1.495518	759.538862	44.901000
1.499998	759.200838	45.001000
1.501262	759.112302	45.101000
1.497266	759.401340	45.201000
1.493726	759.636907	45.301000
1.494790	759.579785	45.401000
1.499277	759.220730	45.501000
1.500600	759.108286	45.601000
1.499178	759.220528	45.701000
1.495386	759.527741	45.801000
1.494073	759.634092	45.901000
1.496323	759.483292	46.001000
